GCD Test
Bias: 5000.000000
CV_N4789_21_UR_DIODEQUARTER_GR_Irradiated_Annealed_60C_70min
Date/Time: 5/23/2022 11:24:50 AM
Sensor Name: 
Type: P
Annealing Status: Irradiated and Annealed at 60C for 70 Minutes
Environment: 0C
Tester: Catherine Tiley

Time Delay per Ramp Step (s): 0.500

CV Time Delay per Measurement (s) :0.500

AC Voltage (V): 0.500

Current Number of measurements per voltage: 1.000

IV Time Delay per Measurement (s) :0.000


BiasVoltage	LCR_Cp_freq1000.0	LCR_Cp_freq10000.0	LCR_Rp_freq1000.0	LCR_Rp_freq10000.0	Temperature	Air_Temp	Humidity	Dewpoint	
  -10.0000	9.749E-12	1.761E-12	7.269E+6	3.797E+6	   -0.0051	   14.6270	   10.0038	  -16.6363	
  -20.0000	8.560E-12	1.927E-12	1.124E+7	4.675E+6	   -0.0026	   14.6011	    9.9892	  -16.6734	
  -30.0000	7.628E-12	1.952E-12	1.423E+7	5.321E+6	   -0.0026	   14.5957	    9.9855	  -16.6821	
  -40.0000	6.951E-12	1.924E-12	1.656E+7	5.872E+6	   -0.0051	   14.6090	    9.9785	  -16.6802	
  -50.0000	6.434E-12	1.885E-12	1.848E+7	6.349E+6	   -0.0026	   14.5759	    9.9671	  -16.7192	
  -60.0000	6.041E-12	1.839E-12	2.007E+7	6.785E+6	   -0.0026	   14.5924	    9.9696	  -16.7035	
  -70.0000	5.714E-12	1.790E-12	2.148E+7	7.191E+6	   -0.0026	   14.5998	    9.9620	  -16.7069	
  -80.0000	5.426E-12	1.741E-12	2.277E+7	7.578E+6	   -0.0026	   14.5998	    9.9513	  -16.7198	
  -90.0000	5.080E-12	1.671E-12	2.347E+7	8.006E+6	    0.0026	   14.5240	    9.9510	  -16.7784	
 -100.0000	4.867E-12	1.628E-12	2.450E+7	8.354E+6	   -0.0026	   14.5405	    9.9424	  -16.7759	
 -110.0000	4.675E-12	1.585E-12	2.547E+7	8.701E+6	   -0.0051	   14.5537	    9.9431	  -16.7650	
 -120.0000	4.557E-12	1.566E-12	2.698E+7	8.961E+6	   -0.0026	   14.5340	    9.9285	  -16.7975	
 -130.0000	4.397E-12	1.525E-12	2.786E+7	9.285E+6	   -0.0000	   14.5977	    9.9364	  -16.7391	
 -140.0000	4.245E-12	1.485E-12	2.880E+7	9.604E+6	   -0.0026	   14.5769	    9.9247	  -16.7691	
 -150.0000	4.099E-12	1.444E-12	2.965E+7	9.934E+6	   -0.0026	   14.5769	    9.9279	  -16.7653	
 -160.0000	3.978E-12	1.407E-12	3.048E+7	1.024E+7	   -0.0026	   14.5075	    9.9149	  -16.8341	
 -170.0000	3.844E-12	1.368E-12	3.126E+7	1.057E+7	    0.0026	   14.5309	    9.9181	  -16.8124	
 -180.0000	3.729E-12	1.328E-12	3.205E+7	1.091E+7	    0.0026	   14.5924	    9.9162	  -16.7675	
 -190.0000	3.610E-12	1.290E-12	3.283E+7	1.125E+7	    0.0077	   14.5828	    9.9137	  -16.7779	
 -200.0000	3.493E-12	1.249E-12	3.384E+7	1.162E+7	    0.0026	   14.5125	    9.9254	  -16.8178	
 -220.0000	3.267E-12	1.167E-12	3.566E+7	1.246E+7	   -0.0000	   14.5032	    9.9190	  -16.8326	
 -240.0000	3.033E-12	1.083E-12	3.808E+7	1.348E+7	   -0.0026	   14.4748	    9.9108	  -16.8643	
 -260.0000	2.796E-12	9.960E-13	4.102E+7	1.482E+7	   -0.0026	   14.4293	    9.9231	  -16.8844	
 -280.0000	2.539E-12	9.104E-13	4.506E+7	1.665E+7	    0.0077	   14.5681	    9.9159	  -16.7865	
 -300.0000	2.276E-12	8.295E-13	4.973E+7	1.924E+7	    0.0077	   14.5306	    9.9269	  -16.8021	
 -320.0000	2.003E-12	7.629E-13	5.537E+7	2.270E+7	    0.0128	   14.5325	    9.9213	  -16.8074	
 -340.0000	1.744E-12	7.109E-13	6.219E+7	2.713E+7	    0.0026	   14.4197	    9.9190	  -16.8967	
 -360.0000	1.520E-12	6.767E-13	6.969E+7	3.194E+7	    0.0051	   14.5039	    9.9231	  -16.8271	
 -380.0000	1.347E-12	6.542E-13	7.763E+7	3.680E+7	    0.0077	   14.5419	    9.9225	  -16.7987	
 -400.0000	1.228E-12	6.412E-13	8.452E+7	4.095E+7	    0.0026	   14.3733	    9.9124	  -16.9403	
 -440.0000	1.072E-12	6.244E-13	9.547E+7	4.736E+7	    0.0026	   14.4458	    9.9181	  -16.8778	
 -480.0000	9.781E-13	6.152E-13	1.043E+8	5.195E+7	   -0.0026	   14.3573	    9.9133	  -16.9514	
 -520.0000	9.156E-13	6.100E-13	1.100E+8	5.500E+7	   -0.0026	   14.7468	    9.9137	  -16.6520	
 -560.0000	8.710E-13	6.051E-13	1.126E+8	5.709E+7	   -0.0051	   14.3893	    9.9165	  -16.9231	
 -600.0000	8.371E-13	6.013E-13	1.139E+8	5.864E+7	    0.0026	   14.3473	    9.9048	  -16.9693	
 -640.0000	8.153E-13	5.981E-13	1.136E+8	5.940E+7	   -0.0000	   14.3473	    9.9168	  -16.9549	
 -680.0000	7.854E-13	5.951E-13	1.115E+8	5.981E+7	   -0.0026	   14.4678	    9.9070	  -16.8787	
 -720.0000	7.586E-13	5.926E-13	1.087E+8	5.928E+7	   -0.0102	   14.3675	    9.9029	  -16.9561	
 -760.0000	7.358E-13	5.904E-13	1.043E+8	5.856E+7	   -0.0051	   14.5049	    9.8997	  -16.8544	
 -800.0000	7.141E-13	5.883E-13	9.817E+7	5.745E+7	    0.0026	   14.1411	    9.9035	  -17.1292	
 -840.0000	6.849E-13	5.855E-13	9.213E+7	5.556E+7	   -0.0026	   14.8082	    9.8982	  -16.6235	
 -880.0000	6.643E-13	5.827E-13	8.481E+7	5.342E+7	   -0.0051	   14.6058	    9.9029	  -16.7731	
 -920.0000	6.377E-13	5.804E-13	7.697E+7	5.048E+7	   -0.0051	   14.1793	    9.9020	  -17.1018	
 -960.0000	6.098E-13	5.773E-13	6.794E+7	4.698E+7	   -0.0077	   14.6961	    9.9083	  -16.6974	
-1000.0000	5.814E-13	5.741E-13	5.942E+7	4.300E+7	   -0.0051	   13.9671	    9.9007	  -17.2663	
