GCD Test
Bias: 5000.000000
IV_N4789_21_LL_DIODE_GR_Irradiated_Annealed_60C_70min
Date/Time: 5/23/2022 9:44:55 AM
Sensor Name: 
Type: P
Annealing Status: Irradiated and Annealed at 60C for 70 Minutes
Environment: 0C
Tester: Catherine Tiley

Time Delay per Ramp Step (s): 0.500

CV Time Delay per Measurement (s) :0.500

AC Voltage (V): 0.500

Current Number of measurements per voltage: 1.000

IV Time Delay per Measurement (s) :0.000


BiasVoltage	Total Current_Avg	Total Current_0	Bias Current_Avg	Bias Current_0	Temperature	Air_Temp	Humidity	Dewpoint	
  -10.0000	-2.6680E-5	-2.6680E-5	-2.326897E-5	-2.326897E-5	   -0.0281	   18.0567	    8.6123	  -15.8156	
  -20.0000	-3.7030E-5	-3.7030E-5	-3.169097E-5	-3.169097E-5	   -0.0819	   18.0476	    8.6373	  -15.7876	
  -30.0000	-4.4140E-5	-4.4140E-5	-3.745902E-5	-3.745902E-5	   -0.0819	   18.0476	    8.6373	  -15.7876	
  -40.0000	-5.0350E-5	-5.0350E-5	-4.228771E-5	-4.228771E-5	   -0.1433	   18.0212	    8.6373	  -15.8075	
  -50.0000	-5.6030E-5	-5.6030E-5	-4.664701E-5	-4.664701E-5	   -0.1817	   17.9908	    8.6505	  -15.8121	
  -60.0000	-6.1120E-5	-6.1120E-5	-5.063583E-5	-5.063583E-5	   -0.1817	   17.9908	    8.6505	  -15.8121	
  -70.0000	-6.5880E-5	-6.5880E-5	-5.417340E-5	-5.417340E-5	   -0.2328	   17.9908	    8.6445	  -15.8204	
  -80.0000	-7.0300E-5	-7.0300E-5	-5.742809E-5	-5.742809E-5	   -0.2738	   17.9776	    8.6480	  -15.8255	
  -90.0000	-7.4600E-5	-7.4600E-5	-6.045096E-5	-6.045096E-5	   -0.2738	   17.9776	    8.6480	  -15.8255	
 -100.0000	-7.8470E-5	-7.8470E-5	-6.362329E-5	-6.362329E-5	   -0.3121	   17.9801	    8.6534	  -15.8162	
 -110.0000	-8.2190E-5	-8.2190E-5	-6.659822E-5	-6.659822E-5	   -0.3505	   17.9801	    8.6546	  -15.8162	
 -120.0000	-8.5940E-5	-8.5940E-5	-6.942403E-5	-6.942403E-5	   -0.3505	   17.9545	    8.6546	  -15.8338	
 -130.0000	-8.9460E-5	-8.9460E-5	-7.210543E-5	-7.210543E-5	   -0.3787	   17.9284	    8.6562	  -15.8513	
 -140.0000	-9.2800E-5	-9.2800E-5	-7.512888E-5	-7.512888E-5	   -0.4094	   17.9284	    8.6594	  -15.8513	
 -150.0000	-9.6370E-5	-9.6370E-5	-7.763025E-5	-7.763025E-5	   -0.4094	   17.9185	    8.6594	  -15.8543	
 -160.0000	-9.9690E-5	-9.9690E-5	-8.022632E-5	-8.022632E-5	   -0.4247	   17.8934	    8.6651	  -15.8654	
 -170.0000	-1.0320E-4	-1.0320E-4	-8.296463E-5	-8.296463E-5	   -0.4247	   17.8934	    8.6651	  -15.8654	
 -180.0000	-1.0610E-4	-1.0610E-4	-8.528629E-5	-8.528629E-5	   -0.4324	   17.8823	    8.6682	  -15.8694	
 -190.0000	-1.0930E-4	-1.0930E-4	-8.776686E-5	-8.776686E-5	   -0.4529	   17.8958	    8.6720	  -15.8540	
 -200.0000	-1.1250E-4	-1.1250E-4	-9.034749E-5	-9.034749E-5	   -0.4529	   17.8958	    8.6720	  -15.8540	
 -220.0000	-1.1840E-4	-1.1840E-4	-9.497514E-5	-9.497514E-5	   -0.4656	   17.8710	    8.6641	  -15.8836	
 -240.0000	-1.2420E-4	-1.2420E-4	-9.925090E-5	-9.925090E-5	   -0.4708	   17.8501	    8.6812	  -15.8758	
 -260.0000	-1.2970E-4	-1.2970E-4	-1.036657E-4	-1.036657E-4	   -0.4708	   17.8501	    8.6812	  -15.8758	
 -280.0000	-1.3470E-4	-1.3470E-4	-1.074531E-4	-1.074531E-4	   -0.4682	   17.8536	    8.6910	  -15.8596	
 -300.0000	-1.3970E-4	-1.3970E-4	-1.114237E-4	-1.114237E-4	   -0.4682	   17.8171	    8.6844	  -15.8963	
 -320.0000	-1.4410E-4	-1.4410E-4	-1.145823E-4	-1.145823E-4	   -0.4682	   17.8171	    8.6844	  -15.8963	
 -340.0000	-1.4830E-4	-1.4830E-4	-1.178193E-4	-1.178193E-4	   -0.4580	   17.8428	    8.6818	  -15.8804	
 -360.0000	-1.5220E-4	-1.5220E-4	-1.206956E-4	-1.206956E-4	   -0.4452	   17.8291	    8.6945	  -15.8733	
 -380.0000	-1.5590E-4	-1.5590E-4	-1.231676E-4	-1.231676E-4	   -0.4452	   17.8291	    8.6945	  -15.8733	
 -400.0000	-1.5970E-4	-1.5970E-4	-1.262586E-4	-1.262586E-4	   -0.4324	   17.8181	    8.7071	  -15.8642	
 -440.0000	-1.6660E-4	-1.6660E-4	-1.310944E-4	-1.310944E-4	   -0.4196	   17.8068	    8.7062	  -15.8740	
 -480.0000	-1.7270E-4	-1.7270E-4	-1.353119E-4	-1.353119E-4	   -0.4196	   17.8068	    8.7062	  -15.8740	
 -520.0000	-1.7970E-4	-1.7970E-4	-1.405594E-4	-1.405594E-4	   -0.3812	   17.7953	    8.7052	  -15.8839	
 -560.0000	-1.8620E-4	-1.8620E-4	-1.455962E-4	-1.455962E-4	   -0.3608	   17.7748	    8.7081	  -15.8955	
 -600.0000	-1.9310E-4	-1.9310E-4	-1.511004E-4	-1.511004E-4	   -0.3608	   17.7748	    8.7081	  -15.8955	
 -640.0000	-2.0060E-4	-2.0060E-4	-1.563358E-4	-1.563358E-4	   -0.3377	   17.7601	    8.7157	  -15.8962	
 -680.0000	-2.0950E-4	-2.0950E-4	-1.624256E-4	-1.624256E-4	   -0.3198	   17.7476	    8.7154	  -15.9060	
 -720.0000	-2.1710E-4	-2.1710E-4	-1.676750E-4	-1.676750E-4	   -0.3198	   17.7476	    8.7154	  -15.9060	
 -760.0000	-2.2580E-4	-2.2580E-4	-1.741119E-4	-1.741119E-4	   -0.2814	   17.7332	    8.7258	  -15.9026	
 -800.0000	-2.3530E-4	-2.3530E-4	-1.817093E-4	-1.817093E-4	   -0.2533	   17.7257	    8.7195	  -15.9169	
 -840.0000	-2.4550E-4	-2.4550E-4	-1.892867E-4	-1.892867E-4	   -0.1996	   17.7257	    8.7195	  -15.9169	
 -880.0000	-2.5610E-4	-2.5610E-4	-1.975609E-4	-1.975609E-4	   -0.1996	   17.6933	    8.7249	  -15.9340	
 -920.0000	-2.6800E-4	-2.6800E-4	-2.064329E-4	-2.064329E-4	   -0.1765	   17.6933	    8.7138	  -15.9492	
 -960.0000	-2.8180E-4	-2.8180E-4	-2.170179E-4	-2.170179E-4	   -0.1484	   17.6833	    8.7252	  -15.9411	
-1000.0000	-2.9700E-4	-2.9700E-4	-2.290913E-4	-2.290913E-4	   -0.1484	   17.6833	    8.7252	  -15.9411	
